freq(Hz)	pow(dB/Hz)
0	52.829359134570964
0.67291259765625	52.71324225394764
1.3458251953125	52.598657997800515
2.01873779296875	52.48556647431303
2.691650390625	52.37392932992367
3.36456298828125	52.26370967124041
4.0374755859375	52.154871991847955
4.71038818359375	52.04738210364418
5.38330078125	51.94120707237396
6.05621337890625	51.836315157055886
6.7291259765625	51.732675753023216
7.40203857421875	51.630259338323405
8.074951171875	51.52903742324126
8.74786376953125	51.428982502729845
9.4207763671875	51.33006801155031
10.09368896484375	51.23226828193782
10.7666015625	51.135558503624495
11.43951416015625	51.039914686063966
12.1124267578125	50.945313622713314
12.78533935546875	50.8517328572395
13.458251953125	50.759150651527314
14.13116455078125	50.66754595537462
14.8040771484375	50.57689837776928
15.47698974609375	50.48718815964972
16.14990234375	50.39839614805817
16.82281494140625	50.31050377160195
17.4957275390625	50.22349301714418
18.16864013671875	50.137346407650625
18.841552734375	50.052046981124754
19.51446533203125	49.96757827056726
20.1873779296875	49.88392428490104
20.86029052734375	49.80106949080614
21.533203125	49.71899879541324
22.20611572265625	49.637697529807355
22.8790283203125	49.557151433296696
23.55194091796875	49.47734663840444
24.224853515625	49.398269656543974
24.89776611328125	49.31990736434052
25.5706787109375	49.242246990564595
26.24359130859375	49.165276103644516
26.91650390625	49.088982599727736
27.58941650390625	49.013354691262016
28.2623291015625	48.93838089606972
28.93524169921875	48.864050026889785
29.608154296875	48.79035118136368
30.28106689453125	48.71727373244262
30.9539794921875	48.644807319195394
31.62689208984375	48.57294183799647
32.2998046875	48.50166743407598
32.97271728515625	48.43097449341368
33.6456298828125	48.360853634960264
34.31854248046875	48.2912957031705
34.991455078125	48.22229176083286
35.66436767578125	48.153833082182175
36.3372802734375	48.08591114628158
37.01019287109375	48.0185176306614
37.68310546875	47.951644405203105
38.35601806640625	47.88528352625705
39.0289306640625	47.81942723098334
39.70184326171875	47.75406793190577
40.374755859375	47.689198211669364
41.04766845703125	47.624810817992184
41.7205810546875	47.56089865880319
42.39349365234375	47.49745479755774
43.06640625	47.43447244872303
43.73931884765625	47.37194497342621
44.4122314453125	47.30986587525814
45.08514404296875	47.248228796226144
45.758056640625	47.18702751284947
46.43096923828125	47.12625593239146
47.1038818359375	47.065908089222816
47.77679443359375	47.00597814131026
48.44970703125	46.946460366825846
49.12261962890625	46.88734916087151
49.7955322265625	46.82863903231463
50.46844482421875	46.77032460072981
51.141357421875	46.71240059344277
51.81427001953125	46.65486184267225
52.4871826171875	46.59770328276602
53.16009521484375	46.54091994752744
53.8330078125	46.484506967628796
54.50592041015625	46.42845956810824
55.1788330078125	46.37277306594711
55.85174560546875	46.31744286772442
56.524658203125	46.26246446734573
57.19757080078125	46.207833443843505
57.8704833984375	46.15354545924628
58.54339599609375	46.099596256514104
59.21630859375	46.04598165753778
59.88922119140625	45.99269756119955
60.5621337890625	45.93973994149295
61.23504638671875	45.887104845699824
61.907958984375	45.83478839262209
62.58087158203125	45.78278677086676
63.2537841796875	45.7310962371819
63.92669677734375	45.679713114841945
64.599609375	45.62863379208051
65.27252197265625	45.57785472056912
65.9454345703125	45.527372413940235
66.61834716796875	45.47718344635297
67.291259765625	45.427284451100064
67.96417236328125	45.37767211925474
68.6370849609375	45.32834319835604
69.30999755859375	45.2792944911313
69.98291015625	45.230522854254616
70.65582275390625	45.18202519713995
71.3287353515625	45.13379848076789
72.00164794921875	45.08583971654473
72.674560546875	45.038145965193124
73.34747314453125	44.990714335672834
74.0203857421875	44.94354198413103
74.69329833984375	44.89662611288096
75.3662109375	44.849963969407995
76.03912353515625	44.80355284540239
76.7120361328125	44.75739007581781
77.38494873046875	44.71147303795463
78.057861328125	44.665799150567615
78.73077392578125	44.620365872996786
79.4036865234375	44.57517070432103
80.07659912109375	44.53021118253368
80.74951171875	44.48548488373931
81.42242431640625	44.440989421371206
82.0953369140625	44.3967224454287
82.76824951171875	44.35268164173408
83.441162109375	44.308864731208075
84.11407470703125	44.26526946916371
84.7869873046875	44.22189364461775
85.45989990234375	44.178735079619344
86.1328125	44.13579162859524
86.80572509765625	44.093061177711235
87.4786376953125	44.050541644249144
88.15155029296875	44.00823097599919
88.824462890625	43.96612715066695
89.49737548828125	43.92422817529475
90.1702880859375	43.88253208569697
90.84320068359375	43.841036945908854
91.51611328125	43.79974084764847
92.18902587890625	43.75864190979142
92.8619384765625	43.71773827785793
93.53485107421875	43.67702812351207
94.207763671875	43.636509644072575
94.88067626953125	43.59618106203517
95.5535888671875	43.55604062460583
96.22650146484375	43.51608660324494
96.8994140625	43.47631729322182
97.57232666015625	43.43673101317948
98.2452392578125	43.39732610470926
98.91815185546875	43.358100931935084
99.591064453125	43.31905388110715
100.26397705078125	43.28018336020463
100.9368896484375	43.241487798547396
101.60980224609375	43.202965646416224
102.28271484375	43.16461537468147
102.95562744140625	43.126435474440015
103.6285400390625	43.08842445666008
104.30145263671875	43.050580851833764
104.974365234375	43.01290320963729
105.64727783203125	42.975390098598496
106.3201904296875	42.93804010577152
106.99310302734375	42.9008518364185
107.666015625	42.86382391369804
108.33892822265625	42.82695497836036
109.0118408203125	42.79024368844887
109.68475341796875	42.75368871900806
110.357666015625	42.71728876179752
111.03057861328125	42.681042525012
111.7034912109375	42.644948733007205
112.37640380859375	42.60900612603137
113.04931640625	42.573213459962375
113.72222900390625	42.53756950605023
114.3951416015625	42.50207305066492
115.06805419921875	42.46672289504926
115.740966796875	42.431517855076955
116.41387939453125	42.39645676101544
117.0867919921875	42.36153845729351
117.75970458984375	42.326761802273694
118.4326171875	42.292125668029115
119.10552978515625	42.257628940124825
119.7784423828125	42.22327051740347
120.45135498046875	42.189049311775236
121.124267578125	42.15496424801187
121.79718017578125	42.12101426354479
122.4700927734375	42.0871983082671
123.14300537109375	42.053515344339544
123.81591796875	42.01996434600008
124.48883056640625	41.9865442993773
125.1617431640625	41.9532542023073
125.83465576171875	41.92009306415415
126.507568359375	41.88705990563376
127.18048095703125	41.85415375864107
127.8533935546875	41.821373666080575
128.52630615234375	41.78871868170003
129.19921875	41.756187869927224
129.87213134765625	41.72378030570991
130.5450439453125	41.691495074358656
131.21795654296875	41.65933127139263
131.890869140625	41.62728800238827
132.56378173828125	41.5953643828307
133.2366943359375	41.56355953796795
133.90960693359375	41.531872602667775
134.58251953125	41.50030272127714
135.25543212890625	41.46884904748419
135.9283447265625	41.437510744182894
136.60125732421875	41.40628698333984
137.274169921875	41.37517694586379
137.94708251953125	41.34417982147724
138.6199951171875	41.31329480859048
139.29290771484375	41.28252111417784
139.9658203125	41.251857953656135
140.63873291015625	41.221304550765225
141.3116455078125	41.19086013745072
141.98455810546875	41.160523953748765
142.657470703125	41.13029524767275
143.33038330078125	41.10017327510208
144.0032958984375	41.070157299672886
144.67620849609375	41.04024659267054
145.34912109375	41.010440432924085
146.02203369140625	40.980738106702496
146.6949462890625	40.95113890761269
147.36785888671875	40.92164213649924
148.040771484375	40.892247101345916
148.71368408203125	40.86295311717873
149.3865966796875	40.83375950597081
150.05950927734375	40.80466559654866
150.732421875	40.775670724500166
151.40533447265625	40.74677423208413
152.0782470703125	40.71797546814117
152.75115966796875	40.68927378800625
153.424072265625	40.66066855342263
154.09698486328125	40.63215913245716
154.7698974609375	40.60374489941704
155.44281005859375	40.57542523476794
156.11572265625	40.54719952505347
156.78863525390625	40.51906716281585
157.4615478515625	40.49102754651804
158.13446044921875	40.46308008046702
158.807373046875	40.43522417473835
159.48028564453125	40.40745924510189
160.1531982421875	40.379784712948776
160.82611083984375	40.352200005219565
161.4990234375	40.32470455433344
162.17193603515625	40.297297798118635
162.8448486328125	40.26997917974393
163.51776123046875	40.242748147651184
164.190673828125	40.21560415548903
164.86358642578125	40.18854666204744
165.5364990234375	40.16157513119354
166.20941162109375	40.13468903180822
166.88232421875	40.10788783772387
167.55523681640625	40.081171027662954
168.2281494140625	40.05453808517768
168.90106201171875	40.02798849859049
169.573974609375	40.00152176093547
170.24688720703125	39.97513736990069
170.9197998046875	39.94883482777146
171.59271240234375	39.922613641374355
172.265625	39.89647332202215
172.93853759765625	39.87041338545958
173.6114501953125	39.8444333518099
174.28436279296875	39.818532745522255
174.957275390625	39.79271109531989
175.63018798828125	39.76696793414903
176.3031005859375	39.741302799128576
176.97601318359375	39.71571523150062
177.64892578125	39.69020477658154
178.32183837890625	39.66477098371393
178.9947509765625	39.63941340621921
179.66766357421875	39.61413160135094
180.340576171875	39.588925130248775
181.01348876953125	39.563793557893135
181.6864013671875	39.538736453060515
182.35931396484375	39.51375338827945
183.0322265625	39.488843939787124
183.70513916015625	39.46400768748658
184.3780517578125	39.43924421490457
185.05096435546875	39.41455310914999
185.723876953125	39.38993396087294
186.39678955078125	39.3653863642243
187.0697021484375	39.340909916815995
187.74261474609375	39.31650421968169
188.41552734375	39.292168877238154
189.08843994140625	39.26790349724707
189.7613525390625	39.243707690777484
190.43426513671875	39.219581072168694
191.107177734375	39.195523258993695
191.78009033203125	39.171533872023154
192.4530029296875	39.147612535189815
193.12591552734375	39.1237588755535
193.798828125	39.099972523266466
194.47174072265625	39.0762531115394
195.1446533203125	39.05260027660772
195.81756591796875	39.02901365769842
196.490478515625	39.0054928969974
197.16339111328125	38.98203763961717
197.8363037109375	38.95864753356499
198.50921630859375	38.93532222971155
199.18212890625	38.91206138175993
199.85504150390625	38.888864646215076
200.5279541015625	38.86573168235366
201.20086669921875	38.84266215219432
201.873779296875	38.81965572046837
202.54669189453125	38.796712054590756
203.2196044921875	38.77383082463159
203.89251708984375	38.75101170328792
204.5654296875	38.72825436585591
205.23834228515625	38.70555849020341
205.9112548828125	38.68292375674287
206.58416748046875	38.6603498484046
207.257080078125	38.637836450610415
207.92999267578125	38.61538325124758
208.6029052734375	38.59298994064312
209.27581787109375	38.57065621153848
209.94873046875	38.54838175906443
210.62164306640625	38.52616628071645
211.2945556640625	38.50400947633029
211.96746826171875	38.481911048057846
212.640380859375	38.4598707003435
213.31329345703125	38.43788813990054
213.9862060546875	38.41596307568812
214.65911865234375	38.39409521888826
215.33203125	38.37228428288339
216.00494384765625	38.350529983233955
216.6778564453125	38.32883203765648
217.35076904296875	38.30719016600178
218.023681640625	38.28560409023353
218.69659423828125	38.26407353440709
219.3695068359375	38.242598224648525
220.04241943359375	38.22117788913398
220.71533203125	38.19981225806927
221.38824462890625	38.17850106366972
222.0611572265625	38.15724404014024
222.73406982421875	38.13604092365569
223.406982421875	38.11489145234145
224.07989501953125	38.09379536625428
224.7528076171875	38.07275240736327
225.42572021484375	38.05176231953128
226.0986328125	38.030824848496316
226.77154541015625	38.00993974185338
227.4444580078125	37.98910674903634
228.11737060546875	37.968325621300195
228.790283203125	37.94759611170341
229.46319580078125	37.92691797509057
230.1361083984375	37.90629096807516
230.80902099609375	37.88571484902261
231.48193359375	37.86518937803352
232.15484619140625	37.844714316927096
232.8277587890625	37.82428942922475
233.50067138671875	37.80391448013394
234.173583984375	37.78358923653219
234.84649658203125	37.76331346695126
235.5194091796875	37.743086941561565
236.19232177734375	37.72290943215671
236.865234375	37.7027807121383
237.53814697265625	37.68270055650079
238.2110595703125	37.662668741816674
238.88397216796875	37.6426850462217
239.556884765625	37.62274924940035
240.22979736328125	37.60286113257147
240.9027099609375	37.58302047847405
241.57562255859375	37.56322707135315
242.24853515625	37.54348069694605
242.92144775390625	37.52378114246849
243.5943603515625	37.504128196601144
244.26727294921875	37.48452164947616
244.940185546875	37.4649612926639
245.61309814453125	37.44544691915988
246.2860107421875	37.425978323371766
246.95892333984375	37.40655530110654
247.6318359375	37.387177649557906
248.30474853515625	37.36784516729368
248.9776611328125	37.34855765424348
249.65057373046875	37.3293149116864
250.323486328125	37.31011674223899
250.99639892578125	37.290962949843205
251.6693115234375	37.27185333975462
252.34222412109375	37.25278771853068
253.01513671875	37.233765894019186
253.68804931640625	37.21478767534676
254.3609619140625	37.19585287290758
255.03387451171875	37.1769612983522
255.706787109375	37.158112764576416
256.37969970703125	37.13930708571036
257.0526123046875	37.12054407710765
257.72552490234375	37.10182355533468
258.3984375	37.08314533816004
259.07135009765625	37.06450924454399
259.7442626953125	37.04591509462816
260.41717529296875	37.027362709725224
261.090087890625	37.00885191230882
261.76300048828125	36.99038252600348
262.4359130859375	36.971954375574704
263.10882568359375	36.95356728691915
263.78173828125	36.93522108705495
264.45465087890625	36.916915604112035
265.1275634765625	36.89865066732268
265.80047607421875	36.88042610701209
266.473388671875	36.86224175458908
267.14630126953125	36.84409744253688
267.8192138671875	36.825993004404026
268.49212646484375	36.80792827479535
269.1650390625	36.78990308936306
269.83795166015625	36.771917284797894
270.5108642578125	36.75397069882043
271.18377685546875	36.736063170172436
271.856689453125	36.71819453860829
272.52960205078125	36.700364644886555
273.2025146484375	36.6825733307616
273.87542724609375	36.664820438975305
274.54833984375	36.64710581324888
275.22125244140625	36.629429298274715
275.8941650390625	36.61179073970842
276.56707763671875	36.594189984160806
277.239990234375	36.576626879190044
277.91290283203125	36.55910127329392
278.5858154296875	36.54161301590206
279.25872802734375	36.524161957368364
279.931640625	36.50674794896342
280.60455322265625	36.489370842867075
281.2774658203125	36.472030492161
281.95037841796875	36.45472675082138
282.623291015625	36.43745947371167
283.29620361328125	36.42022851657544
283.9691162109375	36.403033736029265
284.64202880859375	36.385874989555674
285.31494140625	36.368752135496216
285.98785400390625	36.351665033044576
286.6607666015625	36.33461354223974
287.33367919921875	36.31759752395922
288.006591796875	36.30061683991246
288.67950439453125	36.2836713526341
289.3524169921875	36.26676092547753
290.02532958984375	36.24988542260831
290.6982421875	36.23304470899781
291.37115478515625	36.216238650416855
292.0440673828125	36.199467113429364
292.71697998046875	36.18272996538619
293.389892578125	36.166027074418885
294.06280517578125	36.14935830943365
294.7357177734375	36.13272354010521
295.40863037109375	36.11612263687088
296.08154296875	36.09955547092458
296.75445556640625	36.083021914211
297.4273681640625	36.066521839419764
298.10028076171875	36.05005511997962
298.773193359375	36.03362163005281
299.44610595703125	36.01722124452937
300.1190185546875	36.000853839021495
300.79193115234375	35.984519289858085
301.46484375	35.96821747407917
302.13775634765625	35.951948269430495
302.8106689453125	35.935711554358136
303.48358154296875	35.919507208003175
304.156494140625	35.90333511019638
304.82940673828125	35.887195141453
305.5023193359375	35.87108718296756
306.17523193359375	35.85501111660871
306.84814453125	35.83896682491418
307.52105712890625	35.82295419108571
308.1939697265625	35.80697309898403
308.86688232421875	35.79102343312397
309.539794921875	35.775105078669526
310.21270751953125	35.759217921428984
310.8856201171875	35.74336184785017
311.55853271484375	35.72753674501561
312.2314453125	35.7117425006379
312.90435791015625	35.695979003054894
313.5772705078125	35.68024614122527
314.25018310546875	35.66454380472372
314.923095703125	35.64887188373656
315.59600830078125	35.633230269057165
316.2689208984375	35.61761885208149
316.94183349609375	35.60203752480366
317.61474609375	35.58648617981163
318.28765869140625	35.57096471028275
318.9605712890625	35.555473009979565
319.63348388671875	35.54001097324543
320.306396484375	35.524578495000426
320.97930908203125	35.50917547073706
321.6522216796875	35.49380179651615
322.32513427734375	35.478457368962744
322.998046875	35.46314208526199
323.67095947265625	35.44785584315515
324.3438720703125	35.43259854093557
325.01678466796875	35.41737007744471
325.689697265625	35.40217035206822
326.36260986328125	35.38699926473206
327.0355224609375	35.37185671589863
327.70843505859375	35.356742606562925
328.38134765625	35.34165683824877
329.05426025390625	35.32659931300505
329.7271728515625	35.311569933402
330.40008544921875	35.29656860252746
331.072998046875	35.281595223983295
331.74591064453125	35.266649701881725
332.4188232421875	35.25173194084171
333.09173583984375	35.236841845985424
333.7646484375	35.2219793229347
334.43756103515625	35.20714427780757
335.1104736328125	35.19233661721471
335.78338623046875	35.17755624825609
336.456298828125	35.162803078517506
337.12921142578125	35.14807701606723
337.8021240234375	35.13337796945265
338.47503662109375	35.11870584769693
339.14794921875	35.104060560295736
339.82086181640625	35.089442017213976
340.4937744140625	35.07485012888255
341.16668701171875	35.060284806195135
341.839599609375	35.045745960505016
342.51251220703125	35.031233503621934
343.1854248046875	35.01674734780895
343.85833740234375	35.00228740577936
344.53125	34.987853590693575
345.20416259765625	34.973445816156165
345.8770751953125	34.959063996212706
346.54998779296875	34.94470804534693
347.222900390625	34.93037787847763
347.89581298828125	34.91607341095579
348.5687255859375	34.90179455856162
349.24163818359375	34.88754123750172
349.91455078125	34.87331336440612
350.58746337890625	34.859110856325515
351.2603759765625	34.84493363072839
351.93328857421875	34.83078160549826
352.606201171875	34.81665469893081
353.27911376953125	34.80255282973128
353.9520263671875	34.788475917011624
354.62493896484375	34.77442388028781
355.2978515625	34.76039663947719
355.97076416015625	34.74639411489581
356.6436767578125	34.732416227255726
357.31658935546875	34.71846289766247
357.989501953125	34.704534047612384
358.66241455078125	34.69062959899007
359.3353271484375	34.67674947406584
360.00823974609375	34.66289359549316
360.68115234375	34.64906188630614
361.35406494140625	34.63525426991711
362.0269775390625	34.62147067011402
362.69989013671875	34.60771101105811
363.372802734375	34.59397521728138
364.04571533203125	34.58026321368426
364.7186279296875	34.566574925533175
365.39154052734375	34.55291027845817
366.064453125	34.53926919845056
366.73736572265625	34.52565161186061
367.4102783203125	34.5120574453952
368.08319091796875	34.498486626115536
368.756103515625	34.48493908143488
369.42901611328125	34.47141473911626
370.1019287109375	34.45791352727026
370.77484130859375	34.44443537435278
371.44775390625	34.43098020916282
372.12066650390625	34.41754796084033
372.7935791015625	34.40413855886398
373.46649169921875	34.39075193304903
