freq(Hz)	pow(dB/Hz)
0	46.78903988822335
0.67291259765625	46.672922683034024
1.3458251953125	46.558337453188905
2.01873779296875	46.445244306871516
2.691650390625	46.333604890520455
3.36456298828125	46.22338231074391
4.0374755859375	46.11454106112676
4.71038818359375	46.00704695356718
5.38330078125	45.900867053810394
6.05621337890625	45.79596962087534
6.7291259765625	45.69232405009569
7.40203857421875	45.589900819519414
8.074951171875	45.48867143943185
8.74786376953125	45.38860840478659
9.4207763671875	45.289685150345456
10.09368896484375	45.19187600834425
10.7666015625	45.09515616851588
11.43951416015625	44.999501640314705
12.1124267578125	44.90488921719863
12.78533935546875	44.81129644283553
13.458251953125	44.71870157911112
14.13116455078125	44.62708357582422
14.8040771484375	44.53642204196373
15.47698974609375	44.44669721846915
16.14990234375	44.35788995238384
16.82281494140625	44.269981672316334
17.4957275390625	44.18295436513094
18.16864013671875	44.09679055379471
18.841552734375	44.01147327631246
19.51446533203125	43.92698606568625
20.1873779296875	43.84331293084041
20.86029052734375	43.76043833845647
21.533203125	43.678347195666625
22.20611572265625	43.597024833557505
22.8790283203125	43.51645699143893
23.55194091796875	43.43662980183575
24.224853515625	43.3575297761631
24.89776611328125	43.279143791047986
25.5706787109375	43.20145907526275
26.24359130859375	43.12446319723758
26.91650390625	43.048144053121874
27.58941650390625	42.97248985536537
28.2623291015625	42.897489121792475
28.93524169921875	42.823130665144205
29.608154296875	42.74940358306416
30.28106689453125	42.67629724850573
30.9539794921875	42.60380130053995
31.62689208984375	42.53190563554356
32.2998046875	42.46060039874904
32.97271728515625	42.3898759761385
33.6456298828125	42.31972298666512
34.31854248046875	42.25013227478609
34.991455078125	42.18109490329246
35.66436767578125	42.11260214642163
36.3372802734375	42.04464548323937
37.01019287109375	41.97721659127869
37.68310546875	41.9103073404238
38.35601806640625	41.84390978702783
39.0289306640625	41.77801616825373
39.70184326171875	41.71261889662817
40.374755859375	41.64771055479911
41.04766845703125	41.583283890487614
41.7205810546875	41.51933181162565
42.39349365234375	41.455847381671674
43.06640625	41.39282381509603
43.73931884765625	41.33025447302904
44.4122314453125	41.2681328590648
45.08514404296875	41.20645261521392
45.758056640625	41.14520751799897
46.43096923828125	41.0843914746867
47.1038818359375	41.023998519651244
47.77679443359375	40.964022810862815
48.44970703125	40.90445862649698
49.12261962890625	40.84530036165927
49.7955322265625	40.78654252522072
50.46844482421875	40.72817973675959
51.141357421875	40.670206723605354
51.81427001953125	40.61261831798053
52.4871826171875	40.55540945423674
53.16009521484375	40.49857516618122
53.8330078125	40.442110584490166
54.50592041015625	40.38601093420575
55.1788330078125	40.33027153231334
55.85174560546875	40.27488778539603
56.524658203125	40.219855187363535
57.19757080078125	40.165169317252484
57.8704833984375	40.110825837095646
58.54339599609375	40.05682048985737
59.21630859375	40.00314909743278
59.88922119140625	39.94980755870852
60.5621337890625	39.89679184768257
61.23504638671875	39.84409801164122
61.907958984375	39.79172216939097
62.58087158203125	39.73966050954339
63.2537841796875	39.68790928885121
63.92669677734375	39.63646483059351
64.599609375	39.585323523008654
65.27252197265625	39.53448181777298
65.9454345703125	39.48393622852375
66.61834716796875	39.43368332942499
67.291259765625	39.38371975377435
67.96417236328125	39.33404219265007
68.6370849609375	39.284647393596195
69.30999755859375	39.23553215934517
69.98291015625	39.186693346576206
70.65582275390625	39.138127864708466
71.3287353515625	39.08983267472776
72.00164794921875	39.04180478804569
72.674560546875	38.99404126539021
73.34747314453125	38.94653921572648
74.0203857421875	38.89929579520714
74.69329833984375	38.852308206150866
75.3662109375	38.80557369604859
76.03912353515625	38.759089556596166
76.7120361328125	38.71285312275285
77.38494873046875	38.666861771824735
78.057861328125	38.621112922572316
78.73077392578125	38.57560403434138
79.4036865234375	38.53033260621666
80.07659912109375	38.48529617619738
80.74951171875	38.440492320394036
81.42242431640625	38.39591865224587
82.0953369140625	38.351572821758296
82.76824951171875	38.30745251475965
83.441162109375	38.26355545217681
84.11407470703125	38.219879389328966
84.7869873046875	38.17642211523913
85.45989990234375	38.13318145196271
86.1328125	38.09015525393282
86.80572509765625	38.04734140732159
87.4786376953125	38.00473782941731
88.15155029296875	37.96234246801665
88.824462890625	37.92015330083173
89.49737548828125	37.87816833491145
90.1702880859375	37.836385606076824
90.84320068359375	37.79480317836977
91.51611328125	37.75341914351509
92.18902587890625	37.71223162039516
92.8619384765625	37.67123875453703
93.53485107421875	37.630438717611646
94.207763671875	37.58982970694468
94.88067626953125	37.54940994503882
95.5535888671875	37.509177679107076
96.22650146484375	37.4691311806169
96.8994140625	37.42926874484474
97.57232666015625	37.389588690440775
98.2452392578125	37.350089359003576
98.91815185546875	37.31076911466435
99.591064453125	37.271626343680595
100.26397705078125	37.23265945403889
100.9368896484375	37.19386687506649
101.60980224609375	37.155247057051646
102.28271484375	37.11679847087227
102.95562744140625	37.0785196076328
103.6285400390625	37.040408978309046
104.30145263671875	37.00246511340082
104.974365234375	36.964686562592036
105.64727783203125	36.92707189441832
106.3201904296875	36.889619695941605
106.99310302734375	36.85232857243191
107.666015625	36.815197147055756
108.33892822265625	36.77822406057133
109.0118408203125	36.741407971030064
109.68475341796875	36.7047475534845
110.357666015625	36.66824149970236
111.03057861328125	36.63188851788653
111.7034912109375	36.59568733240094
112.37640380859375	36.5596366835021
113.04931640625	36.523735327076196
113.72222900390625	36.4879820343816
114.3951416015625	36.4523755917967
115.06805419921875	36.41691480057278
115.740966796875	36.38159847659206
116.41387939453125	36.34642545013052
117.0867919921875	36.31139456562557
117.75970458984375	36.2765046814484
118.4326171875	36.24175466968082
119.10552978515625	36.20714341589667
119.7784423828125	36.17266981894738
120.45135498046875	36.13833279075198
121.124267578125	36.10413125609115
121.79718017578125	36.07006415240524
122.4700927734375	36.036130429596376
123.14300537109375	36.00232904983432
123.81591796875	35.968658987366176
124.48883056640625	35.93511922832965
125.1617431640625	35.901708770570046
125.83465576171875	35.86842662346068
126.507568359375	35.83527180772676
127.18048095703125	35.80224335527258
127.8533935546875	35.76934030901203
128.52630615234375	35.7365617227023
129.19921875	35.70390666078068
129.87213134765625	35.67137419820447
130.5450439453125	35.63896342029381
131.21795654296875	35.60667342257754
131.890869140625	35.57450331064176
132.56378173828125	35.542452199981355
133.2366943359375	35.51051921585412
133.90960693359375	35.478703493137665
134.58251953125	35.44700417618883
135.25543212890625	35.415420418705715
135.9283447265625	35.38395138359224
136.60125732421875	35.35259624282507
137.274169921875	35.321354177323
137.94708251953125	35.29022437681869
138.6199951171875	35.259206039732604
139.29290771484375	35.228298373049306
139.9658203125	35.197500592195865
140.63873291015625	35.16681192092249
141.3116455078125	35.13623159118517
141.98455810546875	35.10575884303045
142.657470703125	35.07539292448221
143.33038330078125	35.04513309143039
144.0032958984375	35.01497860752168
144.67620849609375	34.98492874405205
145.34912109375	34.95498277986124
146.02203369140625	34.92514000122893
146.6949462890625	34.8953997017728
147.36785888671875	34.865761182348265
148.040771484375	34.83622375094993
148.71368408203125	34.80678672261473
149.3865966796875	34.77744941932675
150.05950927734375	34.74821116992349
150.732421875	34.71907131000394
151.40533447265625	34.690029181837964
152.0782470703125	34.661084134277345
152.75115966796875	34.63223552266828
153.424072265625	34.60348270876524
154.09698486328125	34.57482506064641
154.7698974609375	34.54626195263033
155.44281005859375	34.51779276519409
156.11572265625	34.48941688489269
156.78863525390625	34.461133704279895
157.4615478515625	34.43294262183021
158.13446044921875	34.40484304186219
158.807373046875	34.37683437446304
159.48028564453125	34.348916035414305
160.1531982421875	34.32108744611889
160.82611083984375	34.2933480335291
161.4990234375	34.26569723007597
162.17193603515625	34.238134473599644
162.8448486328125	34.2106592072808
163.51776123046875	34.18327087957331
164.190673828125	34.15596894413778
164.86358642578125	34.12875285977633
165.5364990234375	34.10162209036816
166.20941162109375	34.07457610480637
166.88232421875	34.047614376935556
167.55523681640625	34.02073638549046
168.2281494140625	33.99394161403561
168.90106201171875	33.967229550905806
169.573974609375	33.940599689147554
170.24688720703125	33.91405152646141
170.9197998046875	33.88758456514517
171.59271240234375	33.86119831203799
172.265625	33.83489227846524
172.93853759765625	33.808665980184315
173.6114501953125	33.78251893733118
174.28436279296875	33.756450674367755
174.957275390625	33.73046072003005
175.63018798828125	33.70454860727716
176.3031005859375	33.6787138732409
176.97601318359375	33.65295605917628
177.64892578125	33.627274710412685
178.32183837890625	33.60166937630576
178.9947509765625	33.57613961019001
179.66766357421875	33.55068496933213
180.340576171875	33.52530501488498
181.01348876953125	33.49999931184219
181.6864013671875	33.474767428993545
182.35931396484375	33.449608938880935
183.0322265625	33.4245234177549
183.70513916015625	33.39951044553192
184.3780517578125	33.374569605752214
185.05096435546875	33.349700485538214
185.723876953125	33.324902675553574
186.39678955078125	33.30017576996282
187.0697021484375	33.27551936639152
187.74261474609375	33.25093306588707
188.41552734375	33.22641647287999
189.08843994140625	33.20196919514578
189.7613525390625	33.17759084376735
190.43426513671875	33.15328103309789
191.107177734375	33.129039380724365
191.78009033203125	33.10486550743142
192.4530029296875	33.08075903716588
193.12591552734375	33.05671959700164
193.798828125	33.03274681710513
194.47174072265625	33.0088403307012
195.1446533203125	32.984999774039515
195.81756591796875	32.96122478636138
196.490478515625	32.937515009867006
197.16339111328125	32.913870089683286
197.8363037109375	32.89028967383193
198.50921630859375	32.866773413198096
199.18212890625	32.84332096149939
199.85504150390625	32.81993197525534
200.5279541015625	32.79660611375722
201.20086669921875	32.773343039038366
201.873779296875	32.75014241584478
202.54669189453125	32.7270039116062
203.2196044921875	32.70392719640753
203.89251708984375	32.68091194296068
204.5654296875	32.65795782657672
205.23834228515625	32.63506452513846
205.9112548828125	32.61223171907334
206.58416748046875	32.58945909132674
207.257080078125	32.56674632733555
207.92999267578125	32.54409311500219
208.6029052734375	32.52149914466887
209.27581787109375	32.49896410909227
209.94873046875	32.47648770341847
210.62164306640625	32.45406962515826
211.2945556640625	32.43170957416276
211.96746826171875	32.409407252599316
212.640380859375	32.38716236492776
213.31329345703125	32.36497461787694
213.9862060546875	32.34284372042155
214.65911865234375	32.32076938375923
215.33203125	32.29875132128807
216.00494384765625	32.276789248584244
216.6778564453125	32.25488288338
217.35076904296875	32.23303194554199
218.023681640625	32.21123615704974
218.69659423828125	32.18949524197448
219.3695068359375	32.167808926458235
220.04241943359375	32.14617693869316
220.71533203125	32.1245990089011
221.38824462890625	32.10307486931345
222.0611572265625	32.08160425415127
222.73406982421875	32.0601868996056
223.406982421875	32.03882254381804
224.07989501953125	32.01751092686162
224.7528076171875	31.99625179072178
225.42572021484375	31.97504487927771
226.0986328125	31.95388993828386
226.77154541015625	31.932786715351664
227.4444580078125	31.911734959931536
228.11737060546875	31.890734423295008
228.790283203125	31.86978485851715
229.46319580078125	31.848886020459194
230.1361083984375	31.82803766575132
230.80902099609375	31.80723955277571
231.48193359375	31.786491441649744
232.15484619140625	31.765793094209457
232.8277587890625	31.745144273993148
233.50067138671875	31.724544746225224
234.173583984375	31.703994277800156
234.84649658203125	31.68349263726674
235.5194091796875	31.663039594812453
236.19232177734375	31.642634922248032
236.865234375	31.622278392992218
237.53814697265625	31.601969782056692
238.2110595703125	31.581708866031192
238.88397216796875	31.561495423068774
239.556884765625	31.54132923287127
240.22979736328125	31.52121007667492
240.9027099609375	31.50113773723614
241.57562255859375	31.481111998817486
242.24853515625	31.461132647173777
242.92144775390625	31.441199469538326
243.5943603515625	31.421312254609433
244.26727294921875	31.40147079253691
244.940185546875	31.381674874908857
245.61309814453125	31.361924294738536
246.2860107421875	31.342218846451424
246.95892333984375	31.322558325872375
247.6318359375	31.30294253021298
248.30474853515625	31.283371258059024
248.9776611328125	31.263844309358092
249.65057373046875	31.244361485407346
250.323486328125	31.224922588841398
250.99639892578125	31.20552742362036
251.6693115234375	31.186175795017963
252.34222412109375	31.166867509609908
253.01513671875	31.14760237526223
253.68804931640625	31.1283802011199
254.3609619140625	31.109200797595452
255.03387451171875	31.090063976357843
255.706787109375	31.070969550321323
256.37969970703125	31.051917333634528
257.0526123046875	31.03290714166963
257.72552490234375	31.01393879101161
258.3984375	30.995012099447685
259.07135009765625	30.976126885956823
259.7442626953125	30.957282970699364
260.41717529296875	30.938480175006774
261.090087890625	30.919718321371505
261.76300048828125	30.900997233436946
262.4359130859375	30.882316735987523
263.10882568359375	30.863676654938864
263.78173828125	30.845076817328074
264.45465087890625	30.82651705130415
265.1275634765625	30.807997186118477
265.80047607421875	30.789517052115375
266.473388671875	30.771076480722872
267.14630126953125	30.75267530444341
267.8192138671875	30.734313356844815
268.49212646484375	30.715990472551233
269.1650390625	30.69770648723424
269.83795166015625	30.679461237604002
270.5108642578125	30.66125456140055
271.18377685546875	30.643086297385146
271.856689453125	30.624956285331724
272.52960205078125	30.606864366018453
273.2025146484375	30.588810381219332
273.87542724609375	30.570794173695933
274.54833984375	30.55281558718918
275.22125244140625	30.534874466411274
275.8941650390625	30.516970657037618
276.56707763671875	30.499104005698896
277.239990234375	30.481274359973206
277.91290283203125	30.463481568378263
278.5858154296875	30.44572548036372
279.25872802734375	30.428005946303507
279.931640625	30.410322817488336
280.60455322265625	30.39267594611816
281.2774658203125	30.375065185294837
281.95037841796875	30.35749038901479
282.623291015625	30.339951412161742
283.29620361328125	30.322448110499593
283.9691162109375	30.304980340665253
284.64202880859375	30.287547960161675
285.31494140625	30.270150827350864
285.98785400390625	30.25278880144699
286.6607666015625	30.23546174250958
287.33367919921875	30.218169511436766
288.006591796875	30.200911969958586
288.67950439453125	30.18368898063038
289.3524169921875	30.166500406826223
290.02532958984375	30.14934611273248
290.6982421875	30.132225963341327
291.37115478515625	30.115139824444416
292.0440673828125	30.098087562626603
292.71697998046875	30.08106904525965
293.389892578125	30.064084140496128
294.06280517578125	30.047132717263246
294.7357177734375	30.030214645256827
295.40863037109375	30.01332979493529
296.08154296875	29.996478037513743
296.75445556640625	29.97965924495807
297.4273681640625	29.962873289979154
298.10028076171875	29.946120046027055
298.773193359375	29.929399387285347
299.44610595703125	29.912711188665448
300.1190185546875	29.896055325801015
300.79193115234375	29.879431675042394
301.46484375	29.862840113451156
302.13775634765625	29.8462805187946
302.8106689453125	29.829752769540434
303.48358154296875	29.813256744851362
304.156494140625	29.796792324579876
304.82940673828125	29.78035938926295
305.5023193359375	29.7639578201169
306.17523193359375	29.74758749903223
306.84814453125	29.73124830856852
307.52105712890625	29.714940131949426
308.1939697265625	29.698662853057666
308.86688232421875	29.682416356430057
309.539794921875	29.66620052725264
310.21270751953125	29.65001525135581
310.8856201171875	29.633860415209526
311.55853271484375	29.617735905918508
312.2314453125	29.60164161121755
312.90435791015625	29.585577419466826
313.5772705078125	29.56954321964727
314.25018310546875	29.55353890135597
314.923095703125	29.53756435480164
315.59600830078125	29.521619470800072
316.2689208984375	29.50570414076974
316.94183349609375	29.4898182567273
317.61474609375	29.47396171128326
318.28765869140625	29.45813439763762
318.9605712890625	29.442336209575547
319.63348388671875	29.42656704146316
320.306396484375	29.410826788243245
320.97930908203125	29.39511534543112
321.6522216796875	29.37943260911044
322.32513427734375	29.363778475929134
322.998046875	29.34815284309527
323.67095947265625	29.33255560837308
324.3438720703125	29.316986670078915
325.01678466796875	29.301445927077296
325.689697265625	29.285933278776973
326.36260986328125	29.270448625127045
327.0355224609375	29.25499186661309
327.70843505859375	29.23956290425334
328.38134765625	29.224161639594882
329.05426025390625	29.208787974709924
329.7271728515625	29.193441812192034
330.40008544921875	29.17812305515249
331.072998046875	29.162831607216578
331.74591064453125	29.147567372519994
332.4188232421875	29.132330255705238
333.09173583984375	29.117120161918063
333.7646484375	29.101936996803914
334.43756103515625	29.08678066650446
335.1104736328125	29.07165107765411
335.78338623046875	29.05654813737656
336.456298828125	29.0414717532814
337.12921142578125	29.026421833460727
337.8021240234375	29.011398286485793
338.47503662109375	28.99640102140369
339.14794921875	28.981429947734036
339.82086181640625	28.966484975465736
340.4937744140625	28.951566015053736
341.16668701171875	28.936672977415796
341.839599609375	28.921805773929336
342.51251220703125	28.906964316428265
343.1854248046875	28.892148517199864
343.85833740234375	28.87735828898166
344.53125	28.8625935449584
345.20416259765625	28.84785419875896
345.8770751953125	28.833140164453326
346.54998779296875	28.81845135654963
347.222900390625	28.80378768999115
347.89581298828125	28.78914908015338
348.5687255859375	28.77453544284109
349.24163818359375	28.75994669428545
349.91455078125	28.74538275114115
350.58746337890625	28.730843530483554
351.2603759765625	28.716328949805874
351.93328857421875	28.701838927016368
352.606201171875	28.68737338043558
353.27911376953125	28.672932228793545
353.9520263671875	28.65851539122712
354.62493896484375	28.64412278727722
355.2978515625	28.629754336886162
355.97076416015625	28.615409960395
356.6436767578125	28.601089578540865
357.31658935546875	28.586793112454384
357.989501953125	28.572520483657033
358.66241455078125	28.558271614058608
359.3353271484375	28.544046425954637
360.00823974609375	28.529844842023856
360.68115234375	28.51566678532571
361.35406494140625	28.50151217929784
362.0269775390625	28.487380947753607
362.69989013671875	28.473273014879684
363.372802734375	28.459188305233553
364.04571533203125	28.44512674374116
364.7186279296875	28.431088255694483
365.39154052734375	28.41707276674917
366.064453125	28.40308020292218
366.73736572265625	28.389110490589466
367.4102783203125	28.375163556483628
368.08319091796875	28.36123932769165
368.756103515625	28.347337731652576
369.42901611328125	28.33345869615531
370.1019287109375	28.319602149336326
370.77484130859375	28.30576801967744
371.44775390625	28.291956236003646
372.12066650390625	28.278166727480887
